1.0000000e+00   9.1345119e-04
9.9974501e-01   8.1566180e-04
9.9898201e-01   1.0983888e-03
9.9771100e-01   1.5067495e-03
9.9593300e-01   1.9780009e-03
9.9365300e-01   2.6832789e-03
9.9087399e-01   3.6569335e-03
9.8759800e-01   4.9748099e-03
9.8382998e-01   6.1059720e-03
9.7957498e-01   7.5768945e-03
9.7483599e-01   9.3384376e-03
9.6961600e-01   1.1512166e-02
9.6392000e-01   1.3731894e-02
9.5775098e-01   1.6493529e-02
9.5111603e-01   1.9161964e-02
9.4401902e-01   2.2282505e-02
9.3646699e-01   2.5439763e-02
9.2846799e-01   2.8946277e-02
9.2003101e-01   3.2738317e-02
9.1116500e-01   3.6724363e-02
9.0187901e-01   4.1024536e-02
8.9218301e-01   4.5339830e-02
8.8208699e-01   5.0369114e-02
8.7160099e-01   5.5134669e-02
8.6073500e-01   6.0679890e-02
8.4950101e-01   6.6186294e-02
8.3791000e-01   7.1994133e-02
8.2597399e-01   7.8327224e-02
8.1370401e-01   8.4734045e-02
8.0111301e-01   9.1251798e-02
7.8821403e-01   9.7967617e-02
7.7501899e-01   1.0562129e-01
7.6154101e-01   1.1251571e-01
7.4779499e-01   1.1980700e-01
7.3379201e-01   1.2778403e-01
7.1954799e-01   1.3559228e-01
7.0507699e-01   1.4329210e-01
6.9039202e-01   1.5129270e-01
6.7550898e-01   1.5944409e-01
6.6044199e-01   1.6800712e-01
6.4520597e-01   1.7583875e-01
6.2981701e-01   1.8408659e-01
6.1429000e-01   1.9249816e-01
5.9864002e-01   2.0065218e-01
5.8288401e-01   2.0872580e-01
5.6703597e-01   2.1629238e-01
5.5111301e-01   2.2444281e-01
5.3513098e-01   2.3187640e-01
5.1910597e-01   2.3896649e-01
5.0305402e-01   2.4631293e-01
4.8699099e-01   2.5289297e-01
4.7093400e-01   2.5887105e-01
4.5489800e-01   2.6463303e-01
4.3889999e-01   2.6990351e-01
4.2295599e-01   2.7530688e-01
4.0708300e-01   2.7898782e-01
3.9129499e-01   2.8324446e-01
3.7560999e-01   2.8632596e-01
3.6004400e-01   2.8922805e-01
3.4461200e-01   2.9138094e-01
3.2933000e-01   2.9342288e-01
3.1421301e-01   2.9361024e-01
2.9927900e-01   2.9431227e-01
2.8454101e-01   2.9359275e-01
2.7001500e-01   2.9260448e-01
2.5571701e-01   2.9067594e-01
2.4166100e-01   2.8831914e-01
2.2786200e-01   2.8467730e-01
2.1433599e-01   2.8050867e-01
2.0109500e-01   2.7595949e-01
1.8815500e-01   2.7041450e-01
1.7553000e-01   2.6356542e-01
1.6323400e-01   2.5667217e-01
1.5128000e-01   2.4876592e-01
1.3968100e-01   2.4036121e-01
1.2845200e-01   2.3098993e-01
1.1760600e-01   2.2115973e-01
1.0715500e-01   2.1082036e-01
9.7112998e-02   1.9997975e-01
8.7493002e-02   1.8873289e-01
7.8305997e-02   1.7727374e-01
6.9565997e-02   1.6514067e-01
6.1285000e-02   1.5317696e-01
5.3474002e-02   1.4081216e-01
4.6149999e-02   1.2830748e-01
3.9326001e-02   1.1597745e-01
3.3013999e-02   1.0371715e-01
2.7230000e-02   9.1394059e-02
2.1980001e-02   7.9281524e-02
1.7277000e-02   6.7480646e-02
1.3141000e-02   5.6151189e-02
9.5729996e-03   4.5430772e-02
6.5830001e-03   3.5656985e-02
4.1880002e-03   2.6727812e-02
2.3540000e-03   1.8790035e-02
1.0810000e-03   1.2252525e-02
3.7100000e-04   7.0451275e-03
7.6999997e-05   3.2941867e-03
4.9999999e-06   8.6002587e-04
0.0000000e+00   1.6392674e-04
4.9999999e-06   -6.7239336e-04
7.6999997e-05   -2.7798086e-03
3.7100000e-04   -6.3391263e-03
1.0810000e-03   -1.1143646e-02
2.3530000e-03   -1.6957831e-02
4.1880002e-03   -2.3183526e-02
6.5850001e-03   -2.9846726e-02
9.5760003e-03   -3.6432333e-02
1.3145000e-02   -4.2846620e-02
1.7281000e-02   -4.9087107e-02
2.1983000e-02   -5.4917961e-02
2.7232001e-02   -6.0479648e-02
3.3016000e-02   -6.5785773e-02
3.9328001e-02   -7.0652112e-02
4.6151999e-02   -7.5487360e-02
5.3475998e-02   -8.0114029e-02
6.1287001e-02   -8.4041439e-02
6.9568001e-02   -8.8453829e-02
7.8308001e-02   -9.2371643e-02
8.7494999e-02   -9.6167475e-02
9.7115003e-02   -9.9179402e-02
1.0715700e-01   -1.0234987e-01
1.1760800e-01   -1.0560310e-01
1.2845400e-01   -1.0792469e-01
1.3968299e-01   -1.1064453e-01
1.5128200e-01   -1.1291423e-01
1.6323499e-01   -1.1536826e-01
1.7553200e-01   -1.1717210e-01
1.8815701e-01   -1.1898034e-01
2.0109700e-01   -1.2103476e-01
2.1433701e-01   -1.2222525e-01
2.2786400e-01   -1.2360662e-01
2.4166299e-01   -1.2433740e-01
2.5571901e-01   -1.2568265e-01
2.7001700e-01   -1.2592140e-01
2.8454199e-01   -1.2671843e-01
2.9927999e-01   -1.2710254e-01
3.1421500e-01   -1.2701029e-01
3.2933101e-01   -1.2745532e-01
3.4461299e-01   -1.2739170e-01
3.6004499e-01   -1.2722756e-01
3.7561101e-01   -1.2653232e-01
3.9129600e-01   -1.2615137e-01
4.0708300e-01   -1.2537129e-01
4.2295700e-01   -1.2446855e-01
4.3890101e-01   -1.2357746e-01
4.5489901e-01   -1.2304625e-01
4.7093499e-01   -1.2170983e-01
4.8699200e-01   -1.2001169e-01
5.0305498e-01   -1.1853910e-01
5.1910698e-01   -1.1690252e-01
5.3513199e-01   -1.1482171e-01
5.5111402e-01   -1.1300322e-01
5.6703597e-01   -1.1119235e-01
5.8288401e-01   -1.0903795e-01
5.9864002e-01   -1.0685937e-01
6.1429000e-01   -1.0474516e-01
6.2981701e-01   -1.0215795e-01
6.4520597e-01   -9.9561445e-02
6.6044199e-01   -9.6911296e-02
6.7550898e-01   -9.4249189e-02
6.9039297e-01   -9.1493197e-02
7.0507699e-01   -8.8558167e-02
7.1954900e-01   -8.5932136e-02
7.3379302e-01   -8.2684569e-02
7.4779499e-01   -7.9747640e-02
7.6154202e-01   -7.6524824e-02
7.7501899e-01   -7.3341243e-02
7.8821403e-01   -7.0012756e-02
8.0111301e-01   -6.6708490e-02
8.1370401e-01   -6.3323669e-02
8.2597297e-01   -5.9973445e-02
8.3791000e-01   -5.6246221e-02
8.4950101e-01   -5.2770678e-02
8.6073500e-01   -4.9452778e-02
8.7160099e-01   -4.5755599e-02
8.8208801e-01   -4.2316057e-02
8.9218402e-01   -3.9229807e-02
9.0188003e-01   -3.5683066e-02
9.1116500e-01   -3.2587025e-02
9.2003101e-01   -2.9599113e-02
9.2846799e-01   -2.6674962e-02
9.3646699e-01   -2.4077842e-02
9.4401902e-01   -2.1323990e-02
9.5111603e-01   -1.9069836e-02
9.5775098e-01   -1.7085006e-02
9.6392000e-01   -1.4920608e-02
9.6961600e-01   -1.3127911e-02
9.7483599e-01   -1.1502774e-02
9.7957498e-01   -1.0274326e-02
9.8383099e-01   -8.8621108e-03
9.8759800e-01   -7.8344680e-03
9.9087399e-01   -6.9253934e-03
9.9365300e-01   -6.1558760e-03
9.9593401e-01   -5.4623340e-03
9.9771100e-01   -4.9684774e-03
9.9898201e-01   -4.5278408e-03
9.9974501e-01   -4.3607219e-03
1.0000000e+00   -4.2483252e-03
