1.0000000e+00   4.3209484e-03
9.9974501e-01   4.5148656e-03
9.9898201e-01   5.0849859e-03
9.9771100e-01   5.9637874e-03
9.9593300e-01   7.0905429e-03
9.9365300e-01   8.5553331e-03
9.9087399e-01   1.0429244e-02
9.8759800e-01   1.2636056e-02
9.8382998e-01   1.5152293e-02
9.7957498e-01   1.7994782e-02
9.7483599e-01   2.1143802e-02
9.6961600e-01   2.4596831e-02
9.6392000e-01   2.8390961e-02
9.5775098e-01   3.2548439e-02
9.5111603e-01   3.7079211e-02
9.4401902e-01   4.1979764e-02
9.3646699e-01   4.7242966e-02
9.2846799e-01   5.2865401e-02
9.2003101e-01   5.8850184e-02
9.1116500e-01   6.5183811e-02
9.0187901e-01   7.1882680e-02
8.9218301e-01   7.8932546e-02
8.8208699e-01   8.6307071e-02
8.7160099e-01   9.3987964e-02
8.6073500e-01   1.0194031e-01
8.4950101e-01   1.1013517e-01
8.3791000e-01   1.1861740e-01
8.2597399e-01   1.2737355e-01
8.1370401e-01   1.3633843e-01
8.0111301e-01   1.4552867e-01
7.8821403e-01   1.5494530e-01
7.7501899e-01   1.6457979e-01
7.6154101e-01   1.7440577e-01
7.4779499e-01   1.8438385e-01
7.3379201e-01   1.9447719e-01
7.1954799e-01   2.0464252e-01
7.0507699e-01   2.1485059e-01
6.9039202e-01   2.2510611e-01
6.7550898e-01   2.3535565e-01
6.6044199e-01   2.4554098e-01
6.4520597e-01   2.5561026e-01
6.2981701e-01   2.6550102e-01
6.1429000e-01   2.7512330e-01
5.9864002e-01   2.8446284e-01
5.8288401e-01   2.9348174e-01
5.6703597e-01   3.0212376e-01
5.5111301e-01   3.1032670e-01
5.3513098e-01   3.1804264e-01
5.1910597e-01   3.2523212e-01
5.0305402e-01   3.3183807e-01
4.8699099e-01   3.3782500e-01
4.7093400e-01   3.4316847e-01
4.5489800e-01   3.4785429e-01
4.3889999e-01   3.5185015e-01
4.2295599e-01   3.5512650e-01
4.0708300e-01   3.5766792e-01
3.9129499e-01   3.5946956e-01
3.7560999e-01   3.6053729e-01
3.6004400e-01   3.6089540e-01
3.4461200e-01   3.6056578e-01
3.2933000e-01   3.5955194e-01
3.1421301e-01   3.5786134e-01
2.9927900e-01   3.5552534e-01
2.8454101e-01   3.5258216e-01
2.7001500e-01   3.4900099e-01
2.5571701e-01   3.4472778e-01
2.4166100e-01   3.3979690e-01
2.2786200e-01   3.3424175e-01
2.1433599e-01   3.2800382e-01
2.0109500e-01   3.2112643e-01
1.8815500e-01   3.1364399e-01
1.7553000e-01   3.0555832e-01
1.6323400e-01   2.9686663e-01
1.5128000e-01   2.8756621e-01
1.3968100e-01   2.7771345e-01
1.2845200e-01   2.6738635e-01
1.1760600e-01   2.5654322e-01
1.0715500e-01   2.4517085e-01
9.7112998e-02   2.3333871e-01
8.7493002e-02   2.2105917e-01
7.8305997e-02   2.0830786e-01
6.9565997e-02   1.9508421e-01
6.1285000e-02   1.8140979e-01
5.3474002e-02   1.6731472e-01
4.6149999e-02   1.5290649e-01
3.9326001e-02   1.3839884e-01
3.3013999e-02   1.2402601e-01
2.7230000e-02   1.1005227e-01
2.1980001e-02   9.6580334e-02
1.7277000e-02   8.3189920e-02
1.3141000e-02   6.9873579e-02
9.5729996e-03   5.6994282e-02
6.5830001e-03   4.4875354e-02
4.1880002e-03   3.3752058e-02
2.3540000e-03   2.3877753e-02
1.0810000e-03   1.5476745e-02
3.7100000e-04   8.7683005e-03
7.6999997e-05   3.9031159e-03
4.9999999e-06   9.6395175e-04
0.0000000e+00   -1.8179649e-05
4.9999999e-06   -9.7908720e-04
7.6999997e-05   -3.8581858e-03
3.7100000e-04   -8.5488735e-03
1.0810000e-03   -1.4767420e-02
2.3530000e-03   -2.2042258e-02
4.1880002e-03   -2.9891880e-02
6.5850001e-03   -3.8056344e-02
9.5760003e-03   -4.6733413e-02
1.3145000e-02   -5.6024715e-02
1.7281000e-02   -6.4758413e-02
2.1983000e-02   -7.2585098e-02
2.7232001e-02   -7.9638973e-02
3.3016000e-02   -8.6097844e-02
3.9328001e-02   -9.2139244e-02
4.6151999e-02   -9.7860038e-02
5.3475998e-02   -1.0331172e-01
6.1287001e-02   -1.0852673e-01
6.9568001e-02   -1.1351672e-01
7.8308001e-02   -1.1829247e-01
8.7494999e-02   -1.2283075e-01
9.7115003e-02   -1.2707610e-01
1.0715700e-01   -1.3102238e-01
1.1760800e-01   -1.3469876e-01
1.2845400e-01   -1.3808921e-01
1.3968299e-01   -1.4119196e-01
1.5128200e-01   -1.4405176e-01
1.6323499e-01   -1.4671476e-01
1.7553200e-01   -1.4915845e-01
1.8815701e-01   -1.5135153e-01
2.0109700e-01   -1.5333125e-01
2.1433701e-01   -1.5510018e-01
2.2786400e-01   -1.5659529e-01
2.4166299e-01   -1.5784536e-01
2.5571901e-01   -1.5891337e-01
2.7001700e-01   -1.5981390e-01
2.8454199e-01   -1.6052511e-01
2.9927999e-01   -1.6105276e-01
3.1421500e-01   -1.6142277e-01
3.2933101e-01   -1.6163257e-01
3.4461299e-01   -1.6165625e-01
3.6004499e-01   -1.6147210e-01
3.7561101e-01   -1.6108453e-01
3.9129600e-01   -1.6049474e-01
4.0708300e-01   -1.5967339e-01
4.2295700e-01   -1.5860678e-01
4.3890101e-01   -1.5731838e-01
4.5489901e-01   -1.5583044e-01
4.7093499e-01   -1.5412222e-01
4.8699200e-01   -1.5218481e-01
5.0305498e-01   -1.5003872e-01
5.1910698e-01   -1.4769560e-01
5.3513199e-01   -1.4515358e-01
5.5111402e-01   -1.4239857e-01
5.6703597e-01   -1.3944227e-01
5.8288401e-01   -1.3628890e-01
5.9864002e-01   -1.3294986e-01
6.1429000e-01   -1.2944256e-01
6.2981701e-01   -1.2579344e-01
6.4520597e-01   -1.2199397e-01
6.6044199e-01   -1.1804938e-01
6.7550898e-01   -1.1396120e-01
6.9039297e-01   -1.0976031e-01
7.0507699e-01   -1.0546842e-01
7.1954900e-01   -1.0111485e-01
7.3379302e-01   -9.6700005e-02
7.4779499e-01   -9.2268117e-02
7.6154202e-01   -8.7839365e-02
7.7501899e-01   -8.3451003e-02
7.8821403e-01   -7.9082243e-02
8.0111301e-01   -7.4736439e-02
8.1370401e-01   -7.0408635e-02
8.2597297e-01   -6.6074371e-02
8.3791000e-01   -6.1759993e-02
8.4950101e-01   -5.7493001e-02
8.6073500e-01   -5.3305872e-02
8.7160099e-01   -4.9228303e-02
8.8208801e-01   -4.5284528e-02
8.9218402e-01   -4.1501552e-02
9.0188003e-01   -3.7898041e-02
9.1116500e-01   -3.4482788e-02
9.2003101e-01   -3.1249527e-02
9.2846799e-01   -2.8188847e-02
9.3646699e-01   -2.5292411e-02
9.4401902e-01   -2.2571629e-02
9.5111603e-01   -2.0032525e-02
9.5775098e-01   -1.7665816e-02
9.6392000e-01   -1.5437937e-02
9.6961600e-01   -1.3309417e-02
9.7483599e-01   -1.1270115e-02
9.7957498e-01   -9.3781305e-03
9.8383099e-01   -7.6801577e-03
9.8759800e-01   -6.1361459e-03
9.9087399e-01   -4.7586667e-03
9.9365300e-01   -3.6277920e-03
9.9593401e-01   -2.7970497e-03
9.9771100e-01   -2.1882013e-03
9.9898201e-01   -1.7130517e-03
9.9974501e-01   -1.4045769e-03
1.0000000e+00   -1.3016232e-03
