1.0000000e+00   2.5903068e-03
9.9974501e-01   2.7257244e-03
9.9898201e-01   3.3100662e-03
9.9771100e-01   3.7058678e-03
9.9593300e-01   5.2225669e-03
9.9365300e-01   6.1069694e-03
9.9087399e-01   7.8628575e-03
9.8759800e-01   1.0043950e-02
9.8382998e-01   1.1126571e-02
9.7957498e-01   1.3924836e-02
9.7483599e-01   1.7013781e-02
9.6961600e-01   2.0145914e-02
9.6392000e-01   2.2937309e-02
9.5775098e-01   2.6587285e-02
9.5111603e-01   3.0930808e-02
9.4401902e-01   3.5019286e-02
9.3646699e-01   3.9806832e-02
9.2846799e-01   4.4641361e-02
9.2003101e-01   4.9685668e-02
9.1116500e-01   5.5597588e-02
9.0187901e-01   6.1535571e-02
8.9218301e-01   6.7179807e-02
8.8208699e-01   7.3265575e-02
8.7160099e-01   7.9401806e-02
8.6073500e-01   8.6776763e-02
8.4950101e-01   9.3978390e-02
8.3791000e-01   1.0190169e-01
8.2597399e-01   1.0906462e-01
8.1370401e-01   1.1761671e-01
8.0111301e-01   1.2561831e-01
7.8821403e-01   1.3413303e-01
7.7501899e-01   1.4310981e-01
7.6154101e-01   1.5227494e-01
7.4779499e-01   1.6163908e-01
7.3379201e-01   1.7107861e-01
7.1954799e-01   1.8059033e-01
7.0507699e-01   1.9096646e-01
6.9039202e-01   2.0131889e-01
6.7550898e-01   2.1154580e-01
6.6044199e-01   2.2149731e-01
6.4520597e-01   2.3207153e-01
6.2981701e-01   2.4245954e-01
6.1429000e-01   2.5327700e-01
5.9864002e-01   2.6318970e-01
5.8288401e-01   2.7413329e-01
5.6703597e-01   2.8364751e-01
5.5111301e-01   2.9366753e-01
5.3513098e-01   3.0287963e-01
5.1910597e-01   3.1187770e-01
5.0305402e-01   3.2194355e-01
4.8699099e-01   3.3136216e-01
4.7093400e-01   3.3855471e-01
4.5489800e-01   3.4651089e-01
4.3889999e-01   3.5396448e-01
4.2295599e-01   3.6086383e-01
4.0708300e-01   3.6713734e-01
3.9129499e-01   3.7226000e-01
3.7560999e-01   3.7772828e-01
3.6004400e-01   3.8124976e-01
3.4461200e-01   3.8441274e-01
3.2933000e-01   3.8822103e-01
3.1421301e-01   3.8969210e-01
2.9927900e-01   3.9085260e-01
2.8454101e-01   3.9056712e-01
2.7001500e-01   3.9021555e-01
2.5571701e-01   3.8854998e-01
2.4166100e-01   3.8580328e-01
2.2786200e-01   3.8239461e-01
2.1433599e-01   3.7800619e-01
2.0109500e-01   3.7280795e-01
1.8815500e-01   3.6479461e-01
1.7553000e-01   3.5749671e-01
1.6323400e-01   3.4817874e-01
1.5128000e-01   3.3833441e-01
1.3968100e-01   3.2703191e-01
1.2845200e-01   3.1441736e-01
1.1760600e-01   3.0111244e-01
1.0715500e-01   2.8743893e-01
9.7112998e-02   2.7353790e-01
8.7493002e-02   2.5785881e-01
7.8305997e-02   2.4203964e-01
6.9565997e-02   2.2536899e-01
6.1285000e-02   2.0835312e-01
5.3474002e-02   1.9155541e-01
4.6149999e-02   1.7444474e-01
3.9326001e-02   1.5737109e-01
3.3013999e-02   1.4003952e-01
2.7230000e-02   1.2362918e-01
2.1980001e-02   1.0644055e-01
1.7277000e-02   9.0261541e-02
1.3141000e-02   7.4714027e-02
9.5729996e-03   5.9878200e-02
6.5830001e-03   4.6530195e-02
4.1880002e-03   3.4420665e-02
2.3540000e-03   2.4142625e-02
1.0810000e-03   1.5885685e-02
3.7100000e-04   8.6842235e-03
7.6999997e-05   3.9589284e-03
4.9999999e-06   1.3041296e-03
0.0000000e+00   3.9327424e-05
4.9999999e-06   -9.6736819e-04
7.6999997e-05   -3.5618313e-03
3.7100000e-04   -8.3101373e-03
1.0810000e-03   -1.4749488e-02
2.3530000e-03   -2.2634817e-02
4.1880002e-03   -3.1815119e-02
6.5850001e-03   -4.1336443e-02
9.5760003e-03   -5.1289409e-02
1.3145000e-02   -6.1712340e-02
1.7281000e-02   -7.1933448e-02
2.1983000e-02   -8.1317335e-02
2.7232001e-02   -9.0931907e-02
3.3016000e-02   -9.9067651e-02
3.9328001e-02   -1.0705935e-01
4.6151999e-02   -1.1530489e-01
5.3475998e-02   -1.2242272e-01
6.1287001e-02   -1.2909071e-01
6.9568001e-02   -1.3555941e-01
7.8308001e-02   -1.4172603e-01
8.7494999e-02   -1.4789020e-01
9.7115003e-02   -1.5223482e-01
1.0715700e-01   -1.5707657e-01
1.1760800e-01   -1.6125073e-01
1.2845400e-01   -1.6499938e-01
1.3968299e-01   -1.6843088e-01
1.5128200e-01   -1.7113145e-01
1.6323499e-01   -1.7411304e-01
1.7553200e-01   -1.7593598e-01
1.8815701e-01   -1.7792468e-01
2.0109700e-01   -1.7899325e-01
2.1433701e-01   -1.7997819e-01
2.2786400e-01   -1.8006694e-01
2.4166299e-01   -1.7978872e-01
2.5571901e-01   -1.7922369e-01
2.7001700e-01   -1.7967090e-01
2.8454199e-01   -1.7868634e-01
2.9927999e-01   -1.7733434e-01
3.1421500e-01   -1.7542990e-01
3.2933101e-01   -1.7401287e-01
3.4461299e-01   -1.7313652e-01
3.6004499e-01   -1.7060772e-01
3.7561101e-01   -1.6943842e-01
3.9129600e-01   -1.6711850e-01
4.0708300e-01   -1.6452457e-01
4.2295700e-01   -1.6153714e-01
4.3890101e-01   -1.5868689e-01
4.5489901e-01   -1.5631877e-01
4.7093499e-01   -1.5209185e-01
4.8699200e-01   -1.4878814e-01
5.0305498e-01   -1.4546478e-01
5.1910698e-01   -1.4146028e-01
5.3513199e-01   -1.3759011e-01
5.5111402e-01   -1.3420187e-01
5.6703597e-01   -1.2971093e-01
5.8288401e-01   -1.2547465e-01
5.9864002e-01   -1.2145034e-01
6.1429000e-01   -1.1735734e-01
6.2981701e-01   -1.1236198e-01
6.4520597e-01   -1.0812797e-01
6.6044199e-01   -1.0335275e-01
6.7550898e-01   -9.9395655e-02
6.9039297e-01   -9.5359355e-02
7.0507699e-01   -8.9838818e-02
7.1954900e-01   -8.5817501e-02
7.3379302e-01   -8.1896260e-02
7.4779499e-01   -7.7564150e-02
7.6154202e-01   -7.3753841e-02
7.7501899e-01   -6.9798633e-02
7.8821403e-01   -6.6068873e-02
8.0111301e-01   -6.1777364e-02
8.1370401e-01   -5.8213562e-02
8.2597297e-01   -5.4613017e-02
8.3791000e-01   -5.0874330e-02
8.4950101e-01   -4.7113985e-02
8.6073500e-01   -4.3856680e-02
8.7160099e-01   -4.0843528e-02
8.8208801e-01   -3.7930075e-02
8.9218402e-01   -3.4784969e-02
9.0188003e-01   -3.1641491e-02
9.1116500e-01   -2.8460285e-02
9.2003101e-01   -2.6132239e-02
9.2846799e-01   -2.3912713e-02
9.3646699e-01   -2.1467615e-02
9.4401902e-01   -1.8972188e-02
9.5111603e-01   -1.7354295e-02
9.5775098e-01   -1.5222558e-02
9.6392000e-01   -1.3595848e-02
9.6961600e-01   -1.1912674e-02
9.7483599e-01   -1.0604994e-02
9.7957498e-01   -9.5068729e-03
9.8383099e-01   -8.3279153e-03
9.8759800e-01   -7.5844917e-03
9.9087399e-01   -6.7140977e-03
9.9365300e-01   -6.3069230e-03
9.9593401e-01   -5.7939342e-03
9.9771100e-01   -5.1474581e-03
9.9898201e-01   -4.9406239e-03
9.9974501e-01   -4.9980669e-03
1.0000000e+00   -5.0247372e-03
