1.0000000e+00   -7.1544114e-06
9.9974501e-01   2.4636410e-04
9.9898201e-01   9.3382155e-04
9.9771100e-01   1.9736381e-03
9.9593300e-01   3.2738787e-03
9.9365300e-01   5.0188997e-03
9.9087399e-01   7.3037674e-03
9.8759800e-01   9.9144531e-03
9.8382998e-01   1.2979688e-02
9.7957498e-01   1.6388465e-02
9.7483599e-01   2.0229924e-02
9.6961600e-01   2.4256535e-02
9.6392000e-01   2.8754115e-02
9.5775098e-01   3.3352971e-02
9.5111603e-01   3.8250580e-02
9.4401902e-01   4.3454729e-02
9.3646699e-01   4.9068715e-02
9.2846799e-01   5.5033330e-02
9.2003101e-01   6.1167706e-02
9.1116500e-01   6.7619137e-02
9.0187901e-01   7.4562736e-02
8.9218301e-01   8.1719317e-02
8.8208699e-01   8.9151502e-02
8.7160099e-01   9.7036608e-02
8.6073500e-01   1.0518941e-01
8.4950101e-01   1.1344808e-01
8.3791000e-01   1.2214717e-01
8.2597399e-01   1.3102317e-01
8.1370401e-01   1.4042588e-01
8.0111301e-01   1.4984541e-01
7.8821403e-01   1.5938990e-01
7.7501899e-01   1.6912712e-01
7.6154101e-01   1.7909582e-01
7.4779499e-01   1.8917592e-01
7.3379201e-01   1.9889985e-01
7.1954799e-01   2.0880917e-01
7.0507699e-01   2.1850649e-01
6.9039202e-01   2.2816654e-01
6.7550898e-01   2.3803762e-01
6.6044199e-01   2.4761470e-01
6.4520597e-01   2.5680435e-01
6.2981701e-01   2.6601517e-01
6.1429000e-01   2.7479753e-01
5.9864002e-01   2.8323910e-01
5.8288401e-01   2.9139349e-01
5.6703597e-01   2.9900253e-01
5.5111301e-01   3.0627245e-01
5.3513098e-01   3.1313777e-01
5.1910597e-01   3.1982720e-01
5.0305402e-01   3.2568541e-01
4.8699099e-01   3.3120289e-01
4.7093400e-01   3.3598804e-01
4.5489800e-01   3.4043452e-01
4.3889999e-01   3.4411347e-01
4.2295599e-01   3.4693399e-01
4.0708300e-01   3.4904441e-01
3.9129499e-01   3.5063183e-01
3.7560999e-01   3.5162497e-01
3.6004400e-01   3.5185426e-01
3.4461200e-01   3.5165483e-01
3.2933000e-01   3.5049659e-01
3.1421301e-01   3.4845340e-01
2.9927900e-01   3.4596294e-01
2.8454101e-01   3.4295782e-01
2.7001500e-01   3.3895218e-01
2.5571701e-01   3.3453304e-01
2.4166100e-01   3.2947493e-01
2.2786200e-01   3.2395864e-01
2.1433599e-01   3.1766316e-01
2.0109500e-01   3.1050172e-01
1.8815500e-01   3.0305919e-01
1.7553000e-01   2.9480588e-01
1.6323400e-01   2.8629106e-01
1.5128000e-01   2.7679846e-01
1.3968100e-01   2.6710415e-01
1.2845200e-01   2.5684956e-01
1.1760600e-01   2.4620947e-01
1.0715500e-01   2.3475507e-01
9.7112998e-02   2.2354245e-01
8.7493002e-02   2.1149646e-01
7.8305997e-02   1.9928901e-01
6.9565997e-02   1.8663342e-01
6.1285000e-02   1.7377834e-01
5.3474002e-02   1.6072743e-01
4.6149999e-02   1.4765395e-01
3.9326001e-02   1.3429078e-01
3.3013999e-02   1.2100345e-01
2.7230000e-02   1.0782369e-01
2.1980001e-02   9.4720833e-02
1.7277000e-02   8.1833929e-02
1.3141000e-02   6.9152862e-02
9.5729996e-03   5.6740571e-02
6.5830001e-03   4.4857677e-02
4.1880002e-03   3.3914708e-02
2.3540000e-03   2.4088100e-02
1.0810000e-03   1.5723404e-02
3.7100000e-04   8.7769972e-03
7.6999997e-05   3.9435434e-03
4.9999999e-06   9.8252099e-04
0.0000000e+00   1.3467934e-05
4.9999999e-06   -9.3087368e-04
7.6999997e-05   -3.8519697e-03
3.7100000e-04   -8.4655276e-03
1.0810000e-03   -1.4678441e-02
2.3530000e-03   -2.2037903e-02
4.1880002e-03   -3.0040380e-02
6.5850001e-03   -3.7860684e-02
9.5760003e-03   -4.5788571e-02
1.3145000e-02   -5.3637866e-02
1.7281000e-02   -6.1422497e-02
2.1983000e-02   -6.8826705e-02
2.7232001e-02   -7.5950749e-02
3.3016000e-02   -8.2709044e-02
3.9328001e-02   -8.9104176e-02
4.6151999e-02   -9.5346287e-02
5.3475998e-02   -1.0123538e-01
6.1287001e-02   -1.0688739e-01
6.9568001e-02   -1.1230615e-01
7.8308001e-02   -1.1742999e-01
8.7494999e-02   -1.2247251e-01
9.7115003e-02   -1.2695335e-01
1.0715700e-01   -1.3145225e-01
1.1760800e-01   -1.3564621e-01
1.2845400e-01   -1.3975015e-01
1.3968299e-01   -1.4340904e-01
1.5128200e-01   -1.4681265e-01
1.6323499e-01   -1.4994329e-01
1.7553200e-01   -1.5310277e-01
1.8815701e-01   -1.5598853e-01
2.0109700e-01   -1.5848534e-01
2.1433701e-01   -1.6053744e-01
2.2786400e-01   -1.6311134e-01
2.4166299e-01   -1.6508339e-01
2.5571901e-01   -1.6640353e-01
2.7001700e-01   -1.6802858e-01
2.8454199e-01   -1.6884413e-01
2.9927999e-01   -1.6959120e-01
3.1421500e-01   -1.7027436e-01
3.2933101e-01   -1.7101759e-01
3.4461299e-01   -1.7123243e-01
3.6004499e-01   -1.7113814e-01
3.7561101e-01   -1.7066501e-01
3.9129600e-01   -1.6995151e-01
4.0708300e-01   -1.6912840e-01
4.2295700e-01   -1.6772608e-01
4.3890101e-01   -1.6637333e-01
4.5489901e-01   -1.6455439e-01
4.7093499e-01   -1.6249178e-01
4.8699200e-01   -1.6008730e-01
5.0305498e-01   -1.5733138e-01
5.1910698e-01   -1.5421513e-01
5.3513199e-01   -1.5098135e-01
5.5111402e-01   -1.4717230e-01
5.6703597e-01   -1.4333235e-01
5.8288401e-01   -1.3889332e-01
5.9864002e-01   -1.3436529e-01
6.1429000e-01   -1.2940532e-01
6.2981701e-01   -1.2432298e-01
6.4520597e-01   -1.1900911e-01
6.6044199e-01   -1.1377463e-01
6.7550898e-01   -1.0853393e-01
6.9039297e-01   -1.0300216e-01
7.0507699e-01   -9.7772561e-02
7.1954900e-01   -9.2390411e-02
7.3379302e-01   -8.7212212e-02
7.4779499e-01   -8.1847332e-02
7.6154202e-01   -7.6619841e-02
7.7501899e-01   -7.1732931e-02
7.8821403e-01   -6.6886999e-02
8.0111301e-01   -6.1945625e-02
8.1370401e-01   -5.7111420e-02
8.2597297e-01   -5.2648004e-02
8.3791000e-01   -4.7976032e-02
8.4950101e-01   -4.3991096e-02
8.6073500e-01   -3.9794326e-02
8.7160099e-01   -3.6014516e-02
8.8208801e-01   -3.2277044e-02
8.9218402e-01   -2.8758816e-02
9.0188003e-01   -2.5703657e-02
9.1116500e-01   -2.2670247e-02
9.2003101e-01   -1.9787101e-02
9.2846799e-01   -1.7171821e-02
9.3646699e-01   -1.4838082e-02
9.4401902e-01   -1.2755280e-02
9.5111603e-01   -1.0836259e-02
9.5775098e-01   -9.4125522e-03
9.6392000e-01   -7.9130689e-03
9.6961600e-01   -6.7203231e-03
9.7483599e-01   -5.4675336e-03
9.7957498e-01   -4.3783849e-03
9.8383099e-01   -3.3986813e-03
9.8759800e-01   -2.4867631e-03
9.9087399e-01   -1.7990863e-03
9.9365300e-01   -1.2703317e-03
9.9593401e-01   -8.9939649e-04
9.9771100e-01   -5.3761649e-04
9.9898201e-01   -1.7227641e-04
9.9974501e-01   -1.1643497e-04
1.0000000e+00   -1.0820369e-05
