atr72sm
1.000000 0.000000
0.999740 0.000041
0.998961 0.000162
0.997663 0.000365
0.995847 0.000649
0.993517 0.001014
0.990673 0.001461
0.987319 0.001989
0.983459 0.002600
0.979096 0.003295
0.974237 0.004079
0.968886 0.004954
0.963050 0.005926
0.956736 0.006999
0.949951 0.008177
0.942703 0.009464
0.934999 0.010861
0.926849 0.012372
0.918261 0.013994
0.909244 0.015728
0.899806 0.017569
0.889957 0.019514
0.879705 0.021556
0.869060 0.023687
0.858031 0.025894
0.846626 0.028164
0.834856 0.030488
0.822730 0.032856
0.810260 0.035253
0.797454 0.037664
0.784325 0.040078
0.770885 0.042493
0.757150 0.044906
0.743133 0.047317
0.728848 0.049726
0.714312 0.052136
0.699539 0.054548
0.684545 0.056959
0.669344 0.059363
0.653950 0.061748
0.638375 0.064087
0.622634 0.066372
0.606745 0.068611
0.590726 0.070815
0.574595 0.072994
0.558370 0.075164
0.542069 0.077330
0.525706 0.079467
0.509293 0.081548
0.492845 0.083544
0.476373 0.085420
0.459896 0.087159
0.443430 0.088762
0.426993 0.090240
0.410607 0.091610
0.394288 0.092898
0.378056 0.094117
0.361927 0.095272
0.345918 0.096362
0.330045 0.097385
0.314323 0.098328
0.298768 0.099171
0.283395 0.099896
0.268220 0.100474
0.253256 0.100875
0.238521 0.101071
0.224033 0.101021
0.209814 0.100691
0.195882 0.100049
0.182261 0.099067
0.168977 0.097723
0.156057 0.096003
0.143530 0.093902
0.131425 0.091425
0.119765 0.088587
0.108577 0.085407
0.097882 0.081912
0.087700 0.078133
0.078052 0.074107
0.068951 0.069866
0.060407 0.065440
0.052429 0.060864
0.045038 0.056174
0.038245 0.051411
0.032054 0.046620
0.026454 0.041841
0.021430 0.037111
0.016988 0.032472
0.013130 0.027973
0.009834 0.023662
0.007074 0.019584
0.004830 0.015777
0.003076 0.012276
0.001790 0.009128
0.000924 0.006377
0.000400 0.004066
0.000132 0.002243
0.000027 0.000932
0.000002 0.000143
0.000000 -0.000120
0.000002 -0.000376
0.000033 -0.001143
0.000166 -0.002420
0.000511 -0.004195
0.001210 -0.006427
0.002413 -0.009033
0.004261 -0.011856
0.006857 -0.014669
0.010235 -0.017342
0.014328 -0.019850
0.019023 -0.022222
0.024307 -0.024453
0.030183 -0.026505
0.036641 -0.028356
0.043654 -0.030012
0.051175 -0.031508
0.059146 -0.032897
0.067552 -0.034185
0.076388 -0.035365
0.085653 -0.036437
0.095345 -0.037409
0.105460 -0.038288
0.115983 -0.039080
0.126895 -0.039793
0.138179 -0.040443
0.149822 -0.041037
0.161814 -0.041581
0.174143 -0.042079
0.186797 -0.042539
0.199762 -0.042965
0.213024 -0.043363
0.226570 -0.043741
0.240387 -0.044095
0.254459 -0.044422
0.268774 -0.044715
0.283317 -0.044962
0.298072 -0.045154
0.313027 -0.045277
0.328164 -0.045318
0.343468 -0.045267
0.358923 -0.045122
0.374514 -0.044887
0.390223 -0.044570
0.406036 -0.044183
0.421936 -0.043738
0.437907 -0.043246
0.453933 -0.042712
0.469999 -0.042140
0.486088 -0.041526
0.502183 -0.040859
0.518267 -0.040137
0.534324 -0.039365
0.550339 -0.038548
0.566294 -0.037683
0.582174 -0.036761
0.597960 -0.035773
0.613638 -0.034719
0.629191 -0.033617
0.644605 -0.032478
0.659864 -0.031311
0.674955 -0.030127
0.689863 -0.028947
0.704574 -0.027783
0.719074 -0.026642
0.733348 -0.025526
0.747381 -0.024425
0.761159 -0.023332
0.774666 -0.022238
0.787888 -0.021137
0.800812 -0.020018
0.813423 -0.018878
0.825708 -0.017718
0.837655 -0.016542
0.849253 -0.015356
0.860490 -0.014171
0.871357 -0.012995
0.881841 -0.011834
0.891935 -0.010696
0.901627 -0.009592
0.910911 -0.008530
0.919776 -0.007521
0.928215 -0.006569
0.936220 -0.005678
0.943782 -0.004850
0.950895 -0.004086
0.957552 -0.003394
0.963745 -0.002777
0.969469 -0.002239
0.974717 -0.001779
0.979484 -0.001392
0.983764 -0.001072
0.987553 -0.000806
0.990844 -0.000585
0.993636 -0.000404
0.995924 -0.000257
0.997706 -0.000145
0.998980 -0.000064
0.999745 -0.000016
1.000000 0.000000